time (s)	magX	magY	magZ
6669.461908	-42.101986	-453.259003	416.138855
6669.465210	-43.855347	-457.525513	429.873535
6669.468549	-45.491817	-462.493378	444.484924
6669.471880	-47.245178	-467.052094	459.446899
6669.475215	-49.349213	-469.974396	474.116699
6669.478548	-51.453243	-475.292877	488.786499
6669.481881	-53.615719	-478.448944	504.040710
6669.485210	-56.011982	-482.423218	520.405396
6669.488543	-57.999123	-485.988403	537.237671
6669.491898	-59.927822	-489.261353	553.543884
6669.495211	-61.447403	-492.066742	569.674805
6669.498544	-64.194328	-494.872101	587.033081
6669.501880	-67.058151	-497.385223	605.384949
6669.505209	-69.512856	-499.489288	623.444580
6669.508543	-71.675339	-501.710205	641.504211
6669.511876	-74.305374	-502.470001	659.563782
6669.515208	-77.636765	-504.690918	677.974121
6669.518540	-80.442139	-505.158478	696.910400
6669.521879	-83.364403	-505.684479	716.431091
6669.526049	-89.676506	-504.749359	755.180420
6669.529380	-92.949448	-504.164917	774.817993
6669.532739	-96.456169	-502.470001	795.683044
6669.536144	-100.722679	-501.534851	815.846680
6669.538989	-103.878723	-498.904816	836.127258
6669.542288	-108.028343	-495.222778	856.816833
6669.545631	-111.009064	-491.891388	877.564941
6669.548958	-115.100227	-488.033966	898.313110
6669.551870	-119.016075	-483.299957	919.236511
6669.555206	-123.048805	-477.747589	939.166321
6669.558541	-127.315308	-470.558868	959.096191
6669.561873	-131.289597	-463.136261	979.318237
6669.565204	-135.556107	-456.239716	997.903931
6669.568537	-139.705734	-446.830017	1016.489502
6669.571873	-143.563110	-437.595673	1036.185547
6669.575232	-147.654297	-427.835297	1054.946533
6669.578535	-150.459671	-417.198242	1071.135986
6669.581871	-154.550858	-405.801361	1088.318848
6669.585204	-158.349808	-393.761627	1104.274536
6669.588537	-161.505844	-380.085419	1119.353394
6669.591888	-164.720337	-367.052124	1133.847900
6669.595204	-167.934830	-351.330292	1147.524048
6669.598536	-170.681763	-336.543640	1160.382080
6669.601866	-173.078033	-320.529602	1171.720459
6669.605197	-176.117187	-303.697357	1183.117310
6669.608532	-178.162766	-286.572845	1192.643921
6669.611893	-180.675919	-268.688568	1201.059937
6669.615197	-181.903275	-249.752258	1210.177490
6669.618531	-184.650208	-232.218674	1215.846680
6669.622737	-186.988022	-193.001831	1226.074585
6669.626119	-187.806244	-172.545959	1228.646240
6669.629410	-188.916718	-152.206970	1231.042480
6669.632709	-190.319412	-130.699097	1231.977661
6669.636064	-190.728516	-109.015862	1230.516479
6669.638952	-191.780533	-87.449524	1229.639771
6669.642312	-192.364990	-65.941635	1227.711060
6669.645618	-192.306549	-43.849293	1223.736816
6669.648948	-192.891006	-21.815393	1219.061157
6669.651858	-193.592346	0.101613	1212.398437
6669.655198	-193.943008	23.655092	1205.092651
6669.658528	-194.235245	44.812309	1198.897461
6669.661859	-193.417007	67.372215	1189.370850
6669.665195	-194.001465	88.880104	1178.792358
6669.668529	-193.475449	110.797119	1168.505859
6669.671859	-193.592346	132.421890	1157.284424
6669.675196	-193.124786	153.579117	1144.601807
6669.678529	-192.481873	174.093430	1132.445068
6669.681858	-191.838974	195.192200	1117.775391
6669.685193	-191.429871	214.596054	1101.936646
6669.688526	-190.085632	234.350586	1086.857788
6669.691859	-189.208939	253.345337	1070.843750
6669.695199	-188.449158	271.989380	1053.719238
6669.698525	-186.812683	289.464539	1035.834961
6669.701855	-185.059326	307.231934	1018.535156
6669.705188	-183.305954	323.421295	1000.241699
6669.708525	-180.559021	339.435333	982.415894
6669.711855	-179.039459	355.040222	962.602966
6669.715189	-176.643188	369.476227	944.251099
6669.718549	-173.662476	383.386230	925.022583
6669.722716	-168.811508	408.167053	885.922668
6669.726129	-166.356796	419.680817	867.103271
6669.729430	-162.733200	429.967194	847.991638
6669.732701	-159.401810	440.545776	828.412415
6669.735606	-156.596436	449.137238	809.359253
6669.738945	-153.206604	457.611816	791.241150
6669.742294	-150.342789	466.086426	771.019043
6669.745627	-147.186737	472.340027	753.368652
6669.748540	-143.563110	479.061249	734.373840
6669.751851	-140.407074	484.672058	717.950684
6669.755188	-137.367920	488.821625	700.007996
6669.758519	-133.685852	493.731049	681.480774
6669.761850	-130.354462	497.763794	664.356262
6669.765182	-127.198425	501.328979	407.196777
6669.768515	-110.015488	484.672058	412.515259
6669.771896	-121.003212	505.186340	613.275085
6669.775182	-118.256287	506.705933	597.553284
6669.778525	-114.866447	507.874847	581.539246
6669.781847	-111.885742	508.517731	566.518799
6669.785183	-109.547928	509.160645	550.680115
6669.788522	-106.333435	508.050171	533.964722
6669.791850	-104.346291	507.699524	519.528748
6669.795183	-101.190239	506.413666	504.975830
6669.798515	-98.735535	504.601898	490.013794
6669.801858	-96.514610	503.549896	476.396057
6669.805200	-94.059906	501.387390	462.544495
6669.808517	-91.196083	498.757355	448.459167
6669.811845	-89.559616	495.835083	435.250488
6669.815183	-87.163353	492.679047	421.223633
6669.819419	-82.779953	486.600708	395.332336
6669.822761	-80.968147	483.269348	382.941895
6669.826020	-78.864120	479.119720	372.012634
6669.829358	-77.052307	474.736328	360.849548
6669.832719	-75.006721	471.521820	349.277405
6669.835622	-73.136467	466.495544	338.172791
6669.838951	-71.441559	462.696594	327.009705
6669.842265	-69.688194	458.020966	316.840210
6669.845599	-67.701057	453.812866	306.320068
6669.848511	-66.356804	448.786560	297.144165
6669.851844	-64.895668	444.052490	286.740845
6669.855178	-62.382526	439.961334	277.798706
6669.858507	-60.512276	435.285706	269.791687
6669.861844	-58.700466	430.434723	261.141785
6669.865173	-56.888660	426.109772	252.433426
6669.868506	-54.901520	421.083466	244.309525
6669.871838	-53.381939	416.232513	236.711655
6669.875172	-51.628578	411.381561	229.464432
6669.878506	-50.109001	407.465729	222.392532
6669.881836	-47.946522	402.380981	214.736191
6669.885174	-46.719170	398.172913	208.248764
6669.888507	-45.258038	393.438812	202.462662
6669.891835	-43.738457	388.646332	196.033691
6669.895167	-42.627995	383.912231	189.663147
6669.898504	-41.108418	379.587280	184.052383
6669.901836	-40.114845	375.262299	178.909195
6669.905171	-38.595268	371.171143	173.649109
6669.908502	-37.192577	366.729309	167.921463
6669.911836	-35.673000	362.638123	163.012039
6669.915170	-34.562534	357.553406	158.628647
6669.919416	-32.984512	349.780151	148.926727
6669.922741	-31.698711	345.688965	144.017303
6669.926016	-30.822033	341.831604	140.627487
6669.929341	-29.360899	338.032623	136.360977
6669.932701	-29.185562	333.590790	132.503571
6669.935604	-28.191990	330.142517	128.587738
6669.938987	-27.782873	326.226654	124.321228
6669.942254	-26.672413	322.310822	119.937836
6669.945583	-26.555521	319.213226	116.606445
6669.948500	-25.561951	315.998718	113.158173
6669.951829	-24.393044	312.024445	109.534561
6669.955166	-23.750143	308.576172	106.495392
6669.958499	-23.691698	304.660339	102.988678
6669.961828	-22.756573	300.627625	99.774170
6669.965162	-22.522791	297.880676	97.144150
6669.968497	-21.646112	294.315521	94.104980
6669.971827	-21.120104	291.451691	91.007385
6669.975164	-20.594095	288.003387	89.254013
6669.978500	-20.360315	284.964264	86.507095
6669.981829	-19.892752	281.691315	84.227707
6669.985163	-19.542080	278.418365	81.363892
6669.988491	-18.957624	275.729889	78.792297
6669.991833	-18.431618	273.099854	76.629822
6669.995165	-18.197836	270.995819	74.350449
6669.998493	-17.730274	268.307343	72.713974
6670.001828	-17.379601	265.677277	70.259277
6670.005162	-16.386030	263.047241	68.447479
6670.008494	-16.327585	260.826324	65.466759
6670.011829	-15.567795	258.722290	64.297852
6670.015158	-14.691114	256.442902	63.362724
6670.019422	-14.398888	251.884201	59.213104
6670.022735	-13.405317	249.604843	59.329994
6670.025998	-12.879309	247.500793	57.635086
6670.029331	-12.002628	245.747437	55.998604
6670.032242	-12.119520	244.052521	55.823273
6670.035596	-11.418175	242.123810	54.128357
6670.038962	-10.775276	240.838028	52.375000
6670.042246	-10.483049	238.909332	51.556763
6670.045157	-10.190823	236.922195	49.569626
6670.048490	-9.723261	236.045502	48.342270
6670.051818	-9.664815	233.883026	47.757820
6670.055153	-9.197252	232.188126	46.588913
6670.058488	-8.612799	230.843872	45.829117
6670.061822	-8.437462	229.324295	44.777100
6670.065153	-8.028345	228.389160	44.192650
6670.068492	-7.969900	226.811142	43.374413
6670.071820	-7.560782	225.817581	43.315971
6670.075154	-7.151665	223.947327	42.322395
6670.078487	-7.502337	222.719971	40.627487
6670.081818	-6.800992	221.025055	40.101471
6670.085150	-6.684102	220.206802	39.633911
6670.088486	-6.684102	218.921021	38.815674
6670.091851	-6.800992	218.044342	37.763664
6670.095151	-6.391875	217.226089	37.588326
6670.098487	-5.924312	216.349426	37.296097
6670.101820	-5.807422	215.297409	35.308960
6670.105155	-6.158093	213.485596	35.133621
6670.108481	-4.580069	213.193359	35.016731
6670.111817	-5.164523	211.907578	34.373833
6670.115150	-4.872296	211.849136	33.964714
6670.119341	-4.404733	210.037323	33.672485
6670.122738	-3.995615	209.628189	32.152908
6670.125993	-4.054061	209.043762	31.568459
6670.129327	-3.820279	208.400864	31.802238
6670.132239	-3.644943	208.167068	31.100891
6670.135570	-3.528053	207.231949	30.750221
6670.138919	-2.183810	207.056610	30.691772
6670.142236	-1.891583	206.647491	30.107323
6670.145179	-2.242255	206.705948	30.399551
6670.148477	-1.833137	206.764389	30.925552
6670.151813	-1.365574	206.121490	30.341103
6670.155148	-0.722676	206.179932	30.341103
6670.158478	-0.488894	205.537033	29.990433
6670.161809	-0.430449	205.478592	30.341103
6670.165146	-0.079777	205.595490	30.574883
6670.168475	-0.021331	205.478592	30.750221
6670.171814	0.329341	205.595490	30.341103
6670.175149	0.446231	205.244797	30.457993
6670.178473	0.855349	205.653931	30.048874
6670.181805	1.381357	205.478592	30.574883
6670.185142	1.498248	206.296829	30.691772
6670.188477	1.790475	206.530609	30.691772
6670.191817	2.258038	206.998184	30.984001
6670.195141	2.959382	207.699509	31.334671
6670.198500	2.258038	207.465744	31.159332
6670.201803	2.900937	208.108643	31.626900
6670.205137	2.608709	208.576202	31.860680
6670.208474	3.076272	208.634628	31.919128
6670.211808	2.725600	209.394424	32.152908
6670.215138	3.251608	210.154221	33.497147
6670.219339	3.251608	210.855545	33.614037
6670.222716	3.543835	211.440018	34.023163
6670.225984	3.543835	211.790680	35.016731
6670.229321	3.894507	213.018036	34.198494
6670.232226	4.069843	213.719391	34.841393
6670.235555	4.245179	214.245392	35.250511
6670.238913	4.595851	215.355850	35.542740
6670.242218	5.004969	216.349426	36.302528
6670.245138	4.303625	217.342987	36.477867
6670.248467	4.362070	217.752121	36.711647
6670.251817	4.303625	218.979477	36.594757
6670.255136	4.654297	220.089935	38.289665
6670.258470	5.121860	221.667953	38.932571
6670.261805	5.355641	222.544647	39.575470
6670.265134	5.823204	223.421310	39.809250
6670.268466	6.115430	225.174667	40.919708
6670.271800	6.290766	226.694244	41.971725
6670.275132	6.992112	227.570938	43.549751
6670.278466	6.992112	229.207397	43.608192
6670.281797	8.044127	230.200974	44.893990
6670.285135	8.570135	232.304993	45.010880
6670.288465	8.277908	234.058380	46.881134
6670.291801	8.336353	235.811737	47.991600
6670.295133	9.446815	237.857315	49.160507
6670.298466	9.388371	239.259995	49.218948
6670.301801	9.329926	241.130249	51.439873
6670.305151	10.206606	243.000504	52.784119
6670.308472	11.200176	244.403198	53.485458
6670.311799	11.141731	246.565674	56.115501
6670.316468	12.018412	250.773743	58.920876
6670.319323	12.895092	252.410217	59.856003
6670.322726	13.654882	255.507797	61.317139
6670.325988	13.888664	257.436493	63.771835
6670.329303	14.590008	259.715881	64.531631
6670.332217	14.765343	262.521240	66.752556
6670.335547	15.525133	265.034393	68.681259
6670.338899	15.758915	267.430634	70.376167
6670.341819	16.051142	270.002258	72.129532
6670.345126	16.343367	273.275177	74.525795
6670.348457	16.635593	275.613007	75.694702
6670.351795	17.220049	278.359924	78.207840
6670.355126	17.687613	281.223755	79.844315
6670.358486	18.155174	283.736908	82.941925
6670.361790	18.973410	286.834503	85.221283
6670.365121	19.265636	289.406097	87.734436
6670.368458	19.966980	293.029724	90.072250
6670.371793	20.726768	295.893524	92.819183
6670.375174	20.902105	298.523560	95.215439
6670.378454	21.603451	302.380981	98.429932
6670.381791	22.304794	305.946136	100.241745
6670.385121	22.538576	309.452850	103.865356
6670.388459	23.590591	312.784241	106.846069
6670.391824	24.467272	315.589630	110.119003
6670.395121	24.525717	319.914581	113.508835
6670.398456	25.051725	323.596619	117.307785
6670.401786	26.571304	326.986450	121.282074
6670.405122	26.863531	330.960754	124.788788
6670.408451	28.090883	334.876587	128.996857
6670.411787	28.909121	338.733978	133.614044
6670.416396	30.779371	346.740997	141.796387
6670.419315	32.240501	350.890625	146.238235
6670.422702	33.234074	355.390900	150.972305
6670.426034	34.812096	359.598969	155.063477
6670.428904	35.688778	364.157715	160.148239
6670.432210	36.623901	368.307343	165.583649
6670.435536	38.085037	373.275177	171.019073
6670.438902	40.247517	377.600159	177.038956
6670.441785	40.715080	382.158875	182.649704
6670.445113	42.702221	387.360504	188.786453
6670.448450	43.871128	391.685455	194.514099
6670.451781	45.975159	396.302643	200.650848
6670.455113	47.670078	401.387390	207.781204
6670.458447	48.312973	405.478546	214.210190
6670.461783	50.475452	410.504883	221.398972
6670.465135	51.936588	415.472717	228.587753
6670.468449	53.573059	419.213226	235.893417
6670.471781	55.501751	425.233093	243.783554
6670.475111	57.196671	429.967194	252.316574
6670.478446	59.534481	434.467499	260.089783
6670.481777	60.937172	438.850861	267.979919
6670.485110	63.099648	444.110931	277.038940
6670.488445	63.567215	448.669708	285.981079
6670.491780	65.788139	452.936188	294.280334
6670.495116	68.418175	458.137817	303.923767
6670.498447	69.820869	462.638123	313.450378
6670.501779	71.924896	466.904633	324.554993
6670.505111	73.795151	470.469788	333.204956
6670.508443	75.606949	474.794739	344.484863
6670.511777	78.003212	479.295044	354.537476
6670.515958	82.503510	487.185181	377.506470
6670.519327	84.841324	490.984131	389.487793
6670.522643	87.237579	494.783112	401.118408
6670.525982	90.218292	497.413086	414.034851
6670.528894	92.556107	500.510712	427.185059
6670.532200	95.478371	504.017426	440.744385
6670.535523	98.342201	506.939728	454.186829
6670.538868	101.498245	508.225525	467.395447
6670.541774	105.004967	510.563293	481.363953
6670.545104	108.219467	512.433594	496.033691
6670.548462	111.200180	514.070068	509.943665
6670.551771	114.823792	515.005188	525.665466
6670.555107	118.856514	515.531189	540.510620
6670.558441	123.064575	515.531189	556.583069
6670.561775	126.921967	515.355896	572.129517
6670.565104	130.720917	514.011597	587.792908
6670.568438	135.045883	513.310303	604.800537
6670.571796	139.370834	512.082886	622.684753
6670.575107	143.578903	509.511322	638.581909
6670.578434	147.494751	506.939728	656.875305
6670.581770	152.111923	504.075897	673.181519
6670.585102	156.319992	500.101593	690.715210
6670.588434	160.586502	495.250641	708.774780
6670.591764	165.262131	490.165894	727.009766
6670.595104	169.294861	484.379791	745.010925
6670.598433	173.736694	478.067719	763.596497
6670.601807	178.529221	471.112701	781.948364
6670.605102	182.912628	463.748566	800.241699
6670.608435	187.120682	455.390900	818.535217
6670.611768	191.737885	445.922729	838.114319
6670.616023	199.452652	426.752686	874.350525
6670.619367	203.485382	415.355865	892.351562
6670.622610	207.459671	403.666779	911.638611
6670.625976	211.141739	391.627045	930.165833
6670.628848	215.232910	378.652161	947.933167
6670.632210	218.798080	365.326630	964.999268
6670.635550	222.772339	350.656830	981.831543
6670.638853	226.045288	336.162384	999.365112
6670.641768	229.610458	320.206787	1015.379150
6670.645093	233.292511	304.134338	1031.802246
6670.648431	235.864120	287.652740	1046.998047
6670.651763	239.078598	270.119110	1062.135376
6670.655123	242.410004	252.643982	1076.337646
6670.658426	246.092041	234.759705	1091.825684
6670.661763	249.131210	215.940308	1104.449829
6670.665089	251.410583	196.536453	1117.132446
6670.668425	255.034210	176.723480	1128.295532
6670.671774	258.014893	156.735168	1139.049438
6670.675093	260.703369	135.870163	1148.166870
6670.678457	263.508759	114.712952	1158.161133
6670.681756	266.080353	94.081741	1165.758911
6670.685091	268.476624	72.924530	1173.064697
6670.688427	270.755981	51.591969	1178.032593
6670.691758	272.509338	30.200970	1183.175659
6670.695094	274.028931	9.102198	1187.500610
6670.698423	275.490051	-13.282372	1190.656738
6670.701762	277.126526	-34.673374	1192.059326
6670.705089	278.587677	-55.830593	1193.345215
6670.708424	279.464355	-76.870918	1191.767212
6670.711756	279.698120	-97.326790	1190.130615
6670.715946	280.808594	-137.946304	1182.649658
6670.719283	279.172119	-157.817719	1178.850830
6670.722667	279.347443	-177.104691	1173.298462
6670.725935	278.120087	-194.988968	1164.473267
6670.728846	276.951202	-213.633041	1156.875244
6670.732180	276.191406	-230.465302	1146.998047
6670.735507	273.970490	-247.998917	1138.114258
6670.738878	271.983337	-263.720734	1127.243530
6670.741749	269.470215	-280.143890	1115.788208
6670.745088	267.424591	-294.346100	1103.339355
6670.748418	264.502350	-309.074310	1089.838501
6670.751751	260.761841	-322.516754	1075.460937
6670.755088	257.605774	-335.959198	1059.797485
6670.758420	254.099060	-348.466492	1044.543335
6670.761749	250.767670	-360.389343	1028.237061
6670.765081	246.150497	-371.727753	1011.580200
6670.768417	242.994446	-381.955658	994.046509
6670.771754	238.786377	-391.949829	977.272705
6670.775085	235.688766	-400.891998	959.856018
6670.778418	231.656036	-409.717194	940.919739
6670.781749	226.629745	-417.665802	923.269226
6670.785082	222.655472	-423.802551	902.871765
6670.788416	218.388947	-431.634216	883.292664
6670.791760	214.823776	-436.602081	864.064087
6670.795079	210.674179	-441.511505	844.777161
6670.798415	206.290756	-447.063812	824.671875
6670.801744	202.316483	-450.102966	804.508240
6670.805080	198.634415	-453.785004	-1015.480103
6670.808416	203.310043	-456.941040	763.245850
6670.812647	186.360901	-461.207611	724.964172
6670.815994	182.854172	-462.610260	706.144714
6670.819252	179.522797	-464.305176	686.214905
6670.822587	175.723846	-464.948090	667.161743
6670.825938	171.691116	-465.181854	647.816284
6670.828841	168.418182	-465.181854	629.230652
6670.832180	164.736115	-464.188324	611.171021
6670.835499	160.995605	-463.253174	592.410095
6670.838835	157.664230	-461.967346	574.934937
6670.841742	154.099075	-460.740021	557.752014
6670.845094	150.943008	-459.161957	540.218384
6670.848408	147.670074	-456.824188	523.853699
6670.851740	144.572464	-454.369476	507.781250
6670.855073	140.831970	-452.090088	491.767151
6670.858406	137.851257	-449.635376	476.045410
6670.861740	134.578323	-446.304016	460.557373
6670.865077	131.480713	-442.446625	447.757812
6670.868406	128.207779	-439.056793	432.503601
6670.871740	124.817947	-435.257843	418.009155
6670.875072	121.311218	-432.277130	405.618713
6670.878408	118.798073	-428.595093	392.936096
6670.881736	115.583572	-425.146790	379.902710
6670.885072	112.310638	-421.347839	366.927917
6670.888407	109.622154	-417.139801	354.771301
6670.891739	106.641434	-412.990173	344.134216
6670.895070	103.777611	-409.424988	333.380249
6670.898403	100.738449	-404.983154	322.801636
6670.901736	98.283752	-400.424408	311.930847
6670.905073	95.653709	-397.093018	302.871765
6670.908402	93.491234	-393.001831	292.994507
6670.913064	88.172707	-384.994843	274.817993
6670.916002	86.244011	-380.903656	265.875854
6670.919243	84.256866	-376.169586	257.576599
6670.922585	82.035942	-372.429077	249.511185
6670.925929	80.048805	-367.811890	241.504166
6670.928859	77.944763	-363.720734	233.088028
6670.932177	76.016075	-359.804901	226.133041
6670.935509	74.145821	-354.661713	218.827347
6670.938399	72.567795	-350.804291	212.047714
6670.941736	70.639099	-347.005371	204.683578
