time (s)	magX	magY	magZ
3706.868186	-80.383698	-445.427338	396.092102
3706.871501	-78.279663	-441.394592	385.455078
3706.874837	-75.941841	-437.770996	375.460876
3706.878168	-73.779373	-433.796722	366.226501
3706.881500	-72.259789	-430.874420	354.829712
3706.884836	-69.512856	-426.724823	346.764221
3706.888166	-67.467270	-423.451874	337.296082
3706.891527	-65.246346	-419.360718	328.646179
3706.894834	-63.726765	-414.977295	319.645569
3706.898165	-61.739624	-410.769257	311.521667
3706.901506	-59.109589	-407.204071	303.748474
3706.904833	-57.765343	-403.755768	296.325928
3706.908164	-55.836643	-400.073730	289.195557
3706.911497	-54.024841	-395.631866	281.188538
3706.914831	-52.446815	-391.599152	273.532227
3706.918164	-50.167446	-388.384674	267.161682
3706.921521	-48.706314	-385.053284	260.791138
3706.924830	-47.303623	-380.786774	254.420578
3706.928164	-45.374928	-377.221588	248.166946
3706.932415	-42.101986	-370.383484	236.127182
3706.935700	-41.108418	-367.285889	230.341110
3706.939003	-39.822620	-362.902496	224.788803
3706.942367	-37.893921	-359.512665	218.359787
3706.945251	-36.491234	-355.363037	212.982834
3706.948604	-35.380772	-351.797852	208.073410
3706.951933	-34.211864	-348.524933	202.813339
3706.955254	-32.750729	-345.251984	197.962372
3706.958159	-31.523376	-342.095947	193.871201
3706.961494	-30.529806	-338.589233	188.786453
3706.964825	-28.776445	-335.900726	184.461487
3706.968160	-28.075100	-332.277130	180.545654
3706.971493	-27.023085	-329.237946	176.571381
3706.974845	-26.029512	-326.315704	171.486633
3706.978159	-25.445061	-322.575195	167.746140
3706.981490	-24.159262	-319.477600	163.654938
3706.984828	-22.990355	-316.613770	159.505341
3706.988161	-22.172119	-313.808380	155.238815
3706.991493	-21.412331	-310.944580	152.608765
3706.994822	-20.652540	-308.431427	149.102066
3706.998175	-20.126534	-305.216919	145.361557
3707.001489	-19.191406	-303.054443	142.731522
3707.004824	-18.139391	-300.775055	139.984589
3707.008158	-17.788719	-298.203491	137.880539
3707.011491	-17.087374	-295.339661	134.549164
3707.014822	-16.152248	-292.709625	131.743790
3707.018194	-15.860022	-290.780914	128.879974
3707.021490	-15.450905	-287.858643	126.775940
3707.024820	-15.041788	-285.813080	123.912109
3707.028155	-14.048216	-283.533722	121.691193
3707.032418	-13.346872	-279.910095	117.892242
3707.035719	-12.119520	-277.689178	115.729767
3707.038999	-11.885738	-276.695618	114.385513
3707.042321	-10.833721	-274.299316	112.515259
3707.045240	-10.249268	-272.429077	110.878799
3707.048592	-9.372587	-270.558838	109.359222
3707.051946	-8.788135	-269.273041	107.372070
3707.055234	-8.262126	-267.169006	105.268051
3707.058151	-8.028345	-265.357208	103.982254
3707.061482	-7.443892	-263.779175	101.936661
3707.064814	-6.976328	-262.668701	100.592422
3707.068185	-6.274984	-261.207581	98.663712
3707.071480	-5.515195	-259.863312	98.079269
3707.074814	-4.989186	-257.934631	96.325897
3707.078148	-3.703389	-256.590393	95.741455
3707.081484	-2.885154	-254.953903	93.812759
3707.084847	-3.469607	-253.668106	92.117844
3707.088148	-2.826708	-252.265427	91.533386
3707.091485	-1.657801	-251.564072	89.955353
3707.094811	-1.482465	-250.745850	88.961792
3707.098144	-1.307129	-248.817139	88.085114
3707.101487	-0.605785	-247.882019	87.792877
3707.104823	0.037114	-246.479324	86.448639
3707.108142	-0.021331	-245.894882	85.045944
3707.111478	0.796904	-244.492203	84.636841
3707.114813	0.855349	-243.790848	83.467926
3707.118170	1.089130	-242.505051	83.058807
3707.121500	1.615139	-242.037491	82.182129
3707.124809	2.433373	-240.751678	81.363892
3707.129475	2.725600	-240.284119	79.902756
3707.132381	3.193163	-239.056778	79.084518
3707.135705	3.426944	-238.180099	78.441620
3707.138999	3.894507	-237.887863	78.850739
3707.142319	4.245179	-237.069641	77.740280
3707.145231	4.478961	-237.069641	77.448059
3707.148578	5.238751	-236.660507	77.331161
3707.151922	5.297196	-236.426743	76.922058
3707.155230	5.881649	-235.959183	75.870033
3707.158140	5.472532	-235.550049	76.454483
3707.161470	6.056985	-235.783844	77.214264
3707.164809	6.582993	-235.199387	76.396042
3707.168200	6.758329	-234.790253	77.038940
3707.171476	7.050557	-235.550049	77.331161
3707.174816	7.284338	-234.614929	76.162262
3707.178142	7.635010	-235.082489	76.454483
3707.181474	7.868791	-235.082489	75.986931
3707.184804	8.628580	-235.199387	75.986931
3707.188135	9.446815	-235.199387	76.512924
3707.191475	9.329926	-235.550049	77.448059
3707.194806	9.855934	-235.725388	77.506500
3707.198138	9.972824	-235.433151	77.331161
3707.201479	10.674168	-235.959183	77.564957
3707.204802	11.083286	-235.959183	77.623398
3707.208139	11.667738	-236.718964	78.090958
3707.211466	11.550848	-236.952744	78.090958
3707.214804	12.719757	-237.011169	78.500076
3707.218137	12.778202	-237.186539	78.850739
3707.221468	12.895092	-238.121658	79.668976
3707.224800	14.063999	-238.180099	79.376755
3707.229463	14.122444	-239.290558	79.318298
3707.232382	15.232906	-239.991913	79.902756
3707.235710	15.232906	-240.868576	80.720993
3707.238974	15.875805	-240.810135	81.714569
3707.242315	16.226477	-241.803696	82.123672
3707.245235	16.051142	-241.862152	82.591248
3707.248575	16.986267	-243.206390	83.760147
3707.251910	17.512276	-243.790848	83.818604
3707.255218	17.746058	-244.550644	84.636841
3707.258133	17.921392	-245.427322	85.747299
3707.261464	18.330511	-246.362457	86.916199
3707.264801	18.973410	-247.414444	86.623978
3707.268133	18.973410	-248.408035	88.377335
3707.271461	20.142315	-249.986053	89.546249
3707.274822	20.434542	-250.687393	90.306046
3707.278126	20.551434	-252.031647	91.591827
3707.281460	21.369667	-252.674530	93.286743
3707.284797	22.129459	-254.661697	94.104980
3707.288130	22.830803	-256.298157	94.864761
3707.291457	23.006138	-257.233276	96.910370
3707.294797	23.356812	-259.278900	98.137711
3707.298126	24.350382	-260.564667	99.715744
3707.301462	25.051725	-262.025818	101.235306
3707.304803	25.753069	-263.136261	103.164017
3707.308125	26.395967	-265.590973	105.209595
3707.311458	26.746639	-267.285889	106.612289
3707.314794	27.447985	-268.688568	108.891663
3707.318144	27.681765	-270.675720	110.469681
3707.321457	28.909121	-272.545990	112.456833
3707.324789	29.552019	-274.123993	114.619293
3707.328998	30.896261	-278.039825	118.944260
3707.332365	31.889833	-279.793213	120.697617
3707.335683	32.532730	-282.306366	123.561432
3707.338969	34.110752	-283.942810	126.191483
3707.342299	34.578316	-286.748199	128.120178
3707.345210	35.571888	-288.150879	131.159332
3707.348558	36.623901	-290.547150	134.081604
3707.351924	37.442139	-292.709625	135.308945
3707.355208	38.201931	-294.930542	138.581894
3707.358124	39.078609	-297.209900	141.270386
3707.361452	40.305962	-299.372375	144.426437
3707.364788	41.007305	-302.002411	147.114914
3707.368154	42.293102	-304.632477	150.095627
3707.371455	43.578899	-306.444275	154.128357
3707.374789	44.163353	-309.541901	156.933731
3707.378120	45.215370	-312.230377	160.265137
3707.381458	46.208939	-314.568176	163.479614
3707.384815	47.670078	-317.607361	167.161667
3707.388118	48.488312	-320.471161	171.778870
3707.391453	49.423435	-323.276550	175.285568
3707.394783	50.826126	-325.731262	178.441635
3707.398114	51.702808	-328.478180	182.591248
3707.401459	53.280830	-331.225098	186.740875
3707.404786	55.034187	-334.614929	190.306046
3707.408113	56.027763	-337.654114	195.624557
3707.411448	57.196671	-340.693268	200.826187
3707.414783	59.066921	-343.673950	205.443375
3707.418166	60.060486	-347.589813	210.586563
3707.421448	61.346291	-350.979645	217.190903
3707.424778	63.099648	-354.544800	222.626328
3707.429457	66.957047	-361.149139	234.198502
3707.432373	68.125946	-364.655853	240.335281
3707.435724	69.820869	-368.162567	247.465591
3707.438961	71.223557	-371.318634	254.128342
3707.442296	73.210693	-374.708466	260.849548
3707.445201	75.139389	-378.273621	268.447449
3707.448530	77.360313	-381.605011	275.051819
3707.451908	79.347458	-385.287079	282.883484
3707.455209	81.743713	-389.027557	289.780029
3707.458109	83.789307	-391.482269	297.845459
3707.461442	85.601105	-394.988983	306.086243
3707.464780	88.348038	-398.145020	314.385498
3707.468112	90.685852	-402.060852	322.392517
3707.471453	93.374344	-405.275360	332.211365
3707.474773	96.179718	-408.840546	340.802856
3707.478109	98.809769	-411.645905	349.569580
3707.481440	101.498245	-415.737091	358.803955
3707.484778	104.478951	-418.600922	368.505920
3707.488138	106.758331	-421.406281	379.084534
3707.491438	109.914375	-424.620789	389.312439
3707.494772	113.187309	-427.484619	399.248169
3707.498107	115.875801	-430.640656	409.300781
3707.501443	119.324074	-433.504456	419.645569
3707.504775	122.012566	-435.842285	432.328247
3707.508107	125.168625	-438.998322	443.783508
3707.511439	128.909119	-441.453033	455.472595
3707.514772	131.831375	-443.966217	467.337036
3707.518117	135.688782	-446.128662	479.201416
3707.521436	138.727936	-448.408051	493.695862
3707.524772	141.942429	-450.921173	505.618713
3707.529412	149.072769	-454.135681	531.919128
3707.532305	152.637939	-455.596802	545.595398
3707.535641	156.670670	-456.999512	561.141846
3707.539055	160.118942	-458.519104	575.694702
3707.542287	163.567215	-459.571106	589.429382
3707.545191	167.833725	-460.214020	604.800537
3707.548534	171.749573	-459.921753	619.762512
3707.551858	175.957626	-460.681549	635.484314
3707.555213	180.457932	-460.330902	651.206116
3707.558106	184.139984	-459.746429	666.460327
3707.561437	188.464935	-459.103546	682.649719
3707.564764	193.082123	-457.291718	698.839050
3707.568099	198.225311	-456.707306	715.028442
3707.571437	202.024261	-454.252594	732.328308
3707.574765	206.816772	-452.090088	750.212524
3707.578101	211.317078	-450.336761	767.044800
3707.581435	216.401794	-446.362457	783.000366
3707.584768	220.668320	-443.381744	799.774231
3707.588103	225.227051	-439.465912	816.138916
3707.591431	230.487137	-435.491638	832.912720
3707.594771	235.279663	-429.763947	849.686462
3707.598097	239.896835	-424.854584	865.233032
3707.601442	244.689362	-419.419159	881.539185
3707.604762	250.241669	-412.347229	898.020813
3707.608096	254.332825	-406.152039	915.262207
3707.611440	259.709808	-399.080139	929.873535
3707.614761	264.443878	-391.131592	945.069397
3707.618092	269.119507	-383.124573	959.797546
3707.621430	273.678253	-374.474670	974.876465
3707.624759	277.944763	-365.649445	988.260376
3707.628097	282.678864	-355.655273	1001.936646
3707.632273	291.504089	-335.199402	1028.120239
3707.635601	296.062836	-323.744110	1041.328857
3707.638958	300.037109	-312.814819	1052.433472
3707.642349	303.719177	-300.541290	1064.239502
3707.645213	307.342773	-287.800201	1074.525757
3707.648515	310.966370	-275.117554	1084.169312
3707.651849	314.356232	-261.733582	1094.455688
3707.655197	317.336914	-247.531342	1103.456299
3707.658093	320.609863	-233.562897	1111.404907
3707.661425	322.246338	-219.126892	1118.476685
3707.664771	325.168610	-203.463562	1124.262817
3707.668093	327.389526	-187.917084	1130.165771
3707.671426	329.435120	-171.903061	1136.244019
3707.674756	331.246948	-155.129242	1139.224731
3707.678093	332.591156	-138.413879	1143.549805
3707.681420	333.876984	-121.055603	1145.770752
3707.684754	335.338104	-103.463547	1147.290283
3707.688090	336.039459	-85.462387	1148.576050
3707.691443	336.799255	-67.344322	1147.933105
3707.694757	336.974579	-49.167820	1146.822754
3707.698088	337.734375	-31.400434	1145.829102
3707.701418	337.149902	-12.230356	1144.368042
3707.704753	337.617493	7.115056	1138.932617
3707.708086	336.857697	25.466896	1135.659668
3707.711417	336.331696	44.052517	1130.399536
3707.714755	335.864136	62.579697	1124.145996
3707.718087	334.870544	81.048431	1117.599976
3707.721416	333.175629	99.166489	1110.119019
3707.724750	331.656036	117.693672	1102.579590
3707.728080	330.370239	135.694839	1092.526978
3707.732334	327.097321	170.469818	1072.713989
3707.735585	324.817963	187.711197	1062.135376
3707.738946	322.597015	204.134338	1051.381470
3707.742278	320.843658	220.499039	1039.341675
3707.745197	317.570709	237.039078	1026.659058
3707.748521	314.414673	251.767303	1013.275146
3707.751840	311.492401	266.612427	1001.118408
3707.755175	308.570129	281.399078	987.208374
3707.758081	305.706329	295.484436	974.408936
3707.761436	302.024261	309.511322	959.972900
3707.764747	298.575989	323.304382	945.829163
3707.768080	294.192596	335.636383	931.159363
3707.771417	290.510529	348.202148	914.911499
3707.774747	287.062256	359.715881	900.533997
3707.778079	282.854187	371.054260	885.221375
3707.781415	278.529236	381.574432	869.850220
3707.784743	274.321167	391.451691	855.355713
3707.788076	269.645538	401.621185	839.341675
3707.791413	265.495911	410.855560	825.256409
3707.794743	260.411163	419.973022	809.651428
3707.798075	256.203094	428.856720	793.578979
3707.801408	251.878159	436.396149	778.792358
3707.804743	247.085632	444.052490	762.953613
3707.808078	242.351547	450.773743	748.576050
3707.811408	238.318817	456.442902	731.919128
3707.814747	233.350952	462.755035	716.840210
3707.818076	229.142883	468.073547	700.943115
3707.821410	224.350388	473.099823	685.571960
3707.824740	219.791641	477.307922	670.609985
3707.828073	215.232910	481.457550	655.940186
3707.832317	206.407654	488.880096	626.834412
3707.835591	201.907364	491.334808	611.930786
3707.838917	197.582397	493.906372	598.254578
3707.842251	193.841904	495.542847	583.526367
3707.845605	188.581818	496.653351	569.265686
3707.848521	184.782867	498.172882	556.115479
3707.851860	181.568390	498.523590	542.556213
3707.855162	177.477203	499.049591	528.295532
3707.858074	173.269135	498.582001	515.788208
3707.861406	169.820862	498.523590	502.521118
3707.864734	165.729691	497.822205	490.539856
3707.868113	162.456757	496.419556	478.032532
3707.871403	158.307129	496.010437	465.817444
3707.874737	154.858856	494.549316	454.069885
3707.878069	151.469025	492.737457	443.549744
3707.881399	148.371414	491.393250	432.036011
3707.884751	145.040039	489.581421	420.346924
3707.888066	142.000870	487.360504	409.651489
3707.891404	138.844818	484.496674	399.657288
3707.894735	135.688782	481.925079	389.312439
3707.898070	133.117187	479.119720	378.383179
3707.901400	130.078033	475.788330	369.850159
3707.904736	126.980423	473.567413	359.914429
3707.908064	123.532135	470.528259	350.972290
3707.911397	120.726761	468.365784	341.854858
3707.914731	118.564293	464.975952	333.088013
3707.918066	115.758919	461.703003	325.080994
3707.921404	112.836647	458.196289	316.781799
3707.924728	109.972824	454.514252	309.651428
3707.928066	107.108994	451.533478	301.410645
3707.932320	102.024254	444.870728	285.104370
3707.935642	99.627991	440.838043	278.324768
3707.938919	96.997948	437.331268	271.603516
3707.942235	94.718582	434.116760	264.414734
3707.945175	92.088547	430.376282	257.167542
3707.948506	89.926071	426.928009	250.855423
3707.951838	87.880478	423.012177	244.075760
3707.955152	85.075104	418.394989	238.289658
3707.958062	83.380188	415.063599	231.743790
3707.961392	81.042374	411.498444	225.373245
3707.964725	79.055229	407.465729	219.178024
3707.968062	77.009644	403.608307	213.801071
3707.971391	75.080948	399.341797	208.365646
3707.974740	73.386032	396.419556	203.339355
3707.978061	71.983345	392.445251	197.903931
3707.981389	70.346870	389.347656	192.526962
3707.984728	68.885735	385.548706	188.085129
3707.988060	66.957047	381.808228	183.526367
3707.991394	65.262123	378.359924	179.552094
3707.994723	63.800995	374.502533	174.759567
3707.998055	62.632088	371.814056	170.960617
3708.001388	61.404732	367.839783	166.869446
3708.004726	60.060486	364.274597	162.193817
3708.008055	58.190239	361.177002	158.979309
3708.011391	57.021332	357.904053	155.297272
3708.014721	55.852425	355.157104	151.556778
3708.018058	54.215954	351.825745	147.933151
3708.021389	53.339279	348.552795	145.244659
3708.024718	52.111923	345.922760	141.445709
3708.028055	50.826126	342.825165	138.172775
3708.032718	49.131207	336.746826	132.678925
3708.035639	48.020748	334.058350	129.756653
3708.038897	46.851841	331.603638	126.542160
3708.042231	46.734951	328.798279	124.028992
3708.045589	44.923141	325.992889	121.515854
3708.048465	44.163353	323.304382	119.411819
3708.051829	43.228230	321.317261	116.898666
3708.055136	42.176212	318.336548	114.210190
3708.058469	41.182640	316.349426	111.580139
3708.061385	40.364407	313.719360	109.476105
3708.064716	39.487728	311.440002	107.722748
3708.068047	38.260376	308.868408	105.794052
3708.071382	37.325245	306.179901	103.456238
3708.074740	36.857685	304.601898	101.585983
3708.078046	36.039448	301.971832	99.072830
3708.081379	35.513443	299.517120	98.137711
3708.084714	34.519871	297.413116	96.267456
3708.088046	33.350964	295.718201	94.397202
3708.091378	33.000294	293.497284	92.702286
3708.094714	31.772943	291.393250	91.358047
3708.098047	31.071596	289.815216	88.961792
3708.101379	29.961138	287.711182	87.266876
3708.104733	29.668909	285.724060	85.922623
3708.108043	28.558449	284.087555	84.578384
3708.111381	28.149328	282.275787	83.760147
3708.114709	27.506430	280.873077	82.299026
3708.118048	27.038866	279.061279	81.539230
3708.121377	26.746639	277.483246	80.311874
3708.124711	25.636179	275.846771	79.727432
3708.128043	25.402397	274.268738	78.909195
3708.132236	24.408827	271.814056	75.986931
3708.135624	24.233490	270.645142	74.525795
3708.138891	23.649038	269.359344	73.649101
3708.142222	23.473701	268.482666	72.772423
3708.145573	22.947693	267.313751	71.545074
3708.148466	21.720341	266.027954	71.194405
3708.151814	21.252777	265.268158	70.200829
3708.155133	21.135887	264.216156	69.557938
3708.158057	20.434542	263.631714	69.850166
3708.161372	20.317652	262.521240	68.973473
3708.164705	20.551434	261.352325	68.096802
3708.168037	20.200762	260.826324	67.863014
3708.171370	19.674753	260.066528	67.103226
3708.174707	19.265636	259.423645	67.395454
3708.178039	18.622738	258.722290	65.934319
3708.181397	18.564291	258.371613	65.758987
3708.184705	17.395386	257.436493	66.343430
3708.188038	17.044714	257.144287	65.408310
3708.191370	16.518703	257.144287	65.116089
3708.194706	16.401814	256.209137	64.940742
3708.198034	15.408243	256.092255	64.765411
3708.201372	15.758915	255.741592	64.706963
3708.204705	14.940680	255.040237	64.882309
3708.208036	15.057570	254.806473	64.122513
3708.211379	13.830217	254.806473	64.005623
3708.214705	13.713327	254.280472	63.362724
3708.218032	13.537992	254.046677	63.654953
3708.221366	12.427528	254.163574	63.187393
3708.224699	12.719757	253.929779	63.947182
3708.228031	11.843075	253.637543	63.596504
3708.232714	11.317066	253.812912	63.479622
3708.235639	10.791059	254.163574	62.719826
3708.238886	10.440388	253.345337	62.135368
3708.242207	10.498833	253.988235	63.362724
3708.245572	9.388371	253.929779	63.538055
3708.248451	8.979252	254.046677	63.888733
3708.251823	9.213036	254.806473	64.005623
3708.255128	8.570135	254.923370	63.771835
3708.258448	8.161018	255.683151	64.356300
3708.261361	7.985682	255.858490	64.590080
3708.264701	7.109002	256.384491	65.349869
3708.268028	6.992112	256.676697	66.343430
3708.271362	6.933666	257.611847	66.518776
3708.274696	6.582993	257.962494	66.752556
3708.278029	6.056985	258.722290	67.512352
3708.281365	6.290766	259.715881	67.337006
3708.284693	5.355641	260.651001	68.622810
3708.288041	5.589423	261.352325	69.207260
3708.291360	5.180305	262.755005	70.551506
3708.294694	5.063415	263.690155	70.843727
3708.298029	4.595851	263.982361	72.187981
3708.301359	3.719171	264.975922	72.538643
3708.304729	3.719171	265.794189	73.298439
3708.308025	3.602281	266.612427	74.642677
3708.311359	3.134718	268.599548	74.584229
3708.314690	2.608709	269.943787	75.402466
3708.318022	2.608709	271.229614	76.688278
3708.321361	1.907365	272.515411	77.564957
3708.324691	1.147576	273.508972	79.493652
3708.328029	0.972239	275.028534	80.837891
3708.331357	0.738458	276.606567	82.006790
3708.335598	-0.255113	279.061279	84.052383
3708.338869	-0.781121	281.106873	85.221283
3708.342206	-1.307129	282.977112	87.442215
3708.345544	-2.242255	284.087555	88.728012
3708.348451	-2.943599	285.665588	89.838470
3708.351798	-3.294271	287.302063	91.358047
3708.355109	-4.112506	288.996979	92.702286
3708.358461	-4.989186	290.458099	93.871201
