time (s)	magX	magY	magZ
5240.965613	-57.706894	425.875977	261.200256
5240.969040	-59.109589	429.908722	269.441040
5240.971863	-60.921391	435.168823	278.266296
5240.975169	-62.440968	439.844452	288.026672
5240.978534	-64.428108	444.578522	296.851929
5240.981832	-66.707481	449.371033	306.787659
5240.985189	-68.343948	454.397339	317.132446
5240.988072	-70.272652	458.488495	327.535706
5240.991408	-71.850670	462.696594	338.406555
5240.994741	-74.480713	467.489075	349.335876
5240.998074	-76.409416	471.755585	361.434021
5241.001407	-78.104324	475.788330	372.772461
5241.004737	-80.792809	479.528839	384.286133
5241.008097	-83.013733	483.444672	396.442810
5241.011409	-85.468445	487.243622	408.424072
5241.014742	-87.572472	491.217926	422.334106
5241.018072	-89.618057	493.789520	436.419434
5241.021405	-92.481880	496.711761	449.277405
5241.024763	-95.813271	499.224945	463.947205
5241.028075	-97.917305	501.621185	477.681824
5241.031401	-99.904442	503.900543	492.994568
5241.034738	-102.125366	505.420135	507.722778
5241.038070	-104.989182	507.641052	523.035461
5241.041402	-108.145241	508.283936	538.815674
5241.044738	-110.541504	508.576172	554.595947
5241.048072	-112.645531	509.219055	570.376160
5241.051401	-115.450905	509.102173	587.208435
5241.054739	-118.080948	507.933258	604.566711
5241.058981	-123.457924	505.127899	640.569092
5241.062278	-126.029518	502.731628	657.810425
5241.065575	-128.308884	500.160065	674.876465
5241.068938	-131.464935	496.653351	693.812744
5241.072279	-133.627411	493.906372	711.989258
5241.075182	-135.965225	488.237183	732.036011
5241.078487	-138.244598	482.743347	751.206055
5241.081823	-140.816193	476.372803	769.791748
5241.085156	-142.861771	470.002258	788.728027
5241.088064	-145.900925	462.053650	808.950073
5241.091400	-147.829636	454.280457	828.470886
5241.094751	-150.342789	445.046082	848.342285
5241.098064	-152.271469	434.993500	867.570862
5241.101398	-155.018417	425.116241	886.916199
5241.104733	-157.005554	413.251801	907.079834
5241.108061	-159.284927	401.445831	927.009766
5241.111398	-161.330505	387.944977	945.887634
5241.114731	-163.317642	374.560974	964.648499
5241.118066	-166.181473	360.300293	985.338135
5241.121397	-168.168625	344.929169	1003.164062
5241.124732	-170.331100	329.090515	1021.749634
5241.128061	-172.201355	312.258209	1038.932617
5241.131399	-173.720917	294.958405	1057.167480
5241.134729	-175.240509	277.132599	1073.064697
5241.138060	-176.818527	258.839172	1089.896973
5241.141395	-177.812103	240.370468	1106.261597
5241.144727	-180.033020	220.265259	1120.171631
5241.148063	-180.734360	200.160065	1134.373779
5241.151394	-181.844833	179.411957	1148.166870
5241.154725	-182.312393	158.605423	1161.024902
5241.158057	-184.124191	137.448196	1173.824463
5241.162327	-184.591766	92.854385	1195.799927
5241.165647	-184.357971	70.878937	1206.378540
5241.168908	-184.182648	47.909912	1213.742554
5241.172229	-183.715088	25.408451	1221.223633
5241.175155	-183.130630	2.147200	1228.704590
5241.178506	-181.669495	-20.529596	1233.555542
5241.181930	-181.026596	-42.797279	1237.939087
5241.185143	-179.799240	-65.941635	1240.744385
5241.188058	-178.513443	-88.326202	1243.608276
5241.191390	-177.169205	-110.360100	1243.315918
5241.194724	-175.006729	-132.744675	1244.017334
5241.198050	-172.727341	-153.785004	1242.439331
5241.201391	-170.740219	-174.825333	1239.517090
5241.204720	-168.636185	-195.807205	1235.834961
5241.208053	-166.532150	-216.029312	1230.282593
5241.211394	-163.200760	-235.374710	1224.613403
5241.214718	-160.629166	-254.252548	1217.307861
5241.218050	-157.414658	-272.195312	1208.307251
5241.221385	-155.369080	-290.430267	1199.131226
5241.224720	-151.628586	-308.080750	1187.617554
5241.228053	-148.121857	-324.503906	1176.454468
5241.231390	-145.258041	-339.991913	1163.654907
5241.234746	-141.459091	-355.129272	1149.218994
5241.238048	-138.536819	-369.039246	1135.484253
5241.241387	-134.737869	-382.306366	1120.639160
5241.244715	-132.166275	-395.690338	1104.742065
5241.248052	-128.717987	-407.730072	1087.792969
5241.251386	-125.094391	-418.542450	1069.265747
5241.254714	-121.120110	-429.530212	1051.848999
5241.258051	-118.490067	-439.232117	1032.678955
5241.262239	-111.710403	-455.947510	994.104980
5241.265666	-108.320572	-463.720734	975.051880
5241.268889	-105.047630	-470.149719	954.128418
5241.272222	-102.476036	-476.987823	934.373840
5241.275582	-98.618645	-482.949219	913.801086
5241.278472	-95.637932	-486.865051	892.643921
5241.281828	-93.124779	-491.190033	872.363342
5241.285136	-89.910286	-494.813660	851.147705
5241.288075	-85.994446	-498.145020	830.399597
5241.291376	-83.656631	-500.015289	810.761902
5241.294710	-80.851257	-501.827118	789.721619
5241.298042	-77.052307	-503.346649	767.921509
5241.301378	-74.539154	-503.697357	747.933167
5241.304710	-71.207779	-504.574036	729.172180
5241.308044	-68.460838	-503.872711	709.476135
5241.311373	-65.246346	-503.814240	689.312439
5241.314707	-62.148746	-502.586914	669.674805
5241.318064	-59.752483	-501.593323	651.439880
5241.321375	-56.771767	-499.489288	633.088013
5241.324708	-53.615719	-498.028168	614.794617
5241.328043	-50.927235	-495.573456	597.027283
5241.331377	-48.530975	-492.475861	578.850769
5241.334709	-46.426945	-490.138031	562.135376
5241.338040	-43.913792	-486.865051	544.777100
5241.341398	-41.225307	-483.416809	528.354004
5241.344709	-39.121273	-480.377655	512.281494
5241.348038	-36.666569	-476.520264	496.676575
5241.351376	-34.620979	-471.727722	481.831482
5241.354710	-32.224720	-467.285889	466.226562
5241.358041	-30.529806	-463.662262	453.193237
5241.362279	-26.380186	-454.661682	424.613464
5241.365620	-25.152834	-449.927643	409.826782
5241.368880	-23.516363	-446.070221	397.553223
5241.372231	-22.113674	-441.628387	386.039551
5241.375565	-19.892752	-436.718964	373.824463
5241.378478	-18.957624	-432.394012	361.726257
5241.381814	-16.912039	-427.192383	349.569580
5241.385128	-16.093803	-421.347839	338.289673
5241.388463	-14.866451	-416.789124	328.470825
5241.391366	-13.288425	-412.171906	318.652039
5241.394717	-12.703974	-407.262543	308.248779
5241.398037	-12.061075	-402.937561	298.429932
5241.401368	-10.775276	-398.028168	288.552673
5241.404705	-9.781706	-393.001831	279.376770
5241.408036	-9.372587	-388.910675	271.369751
5241.411366	-8.262126	-384.293488	263.245850
5241.414700	-7.911454	-379.500977	254.537491
5241.418032	-6.859438	-374.883789	246.296677
5241.421369	-5.982758	-369.915924	239.458572
5241.424702	-4.989186	-365.064972	232.211349
5241.428029	-4.346288	-360.973785	224.671921
5241.431412	-2.768263	-357.057953	217.950699
5241.434699	-2.066919	-351.856323	211.521683
5241.438032	-1.424020	-347.239136	204.332916
5241.441365	-0.430449	-342.738831	198.254608
5241.444699	0.037114	-338.413879	192.468521
5241.448083	0.855349	-335.199402	187.149994
5241.451364	1.264466	-330.757538	180.370331
5241.454697	2.199592	-326.607941	175.577805
5241.458032	2.316483	-322.458313	170.785278
5241.461360	2.491819	-319.126923	164.823868
5241.465607	4.478961	-310.944580	155.647934
5241.468867	5.004969	-307.554749	151.848999
5241.472222	5.764759	-303.463562	147.933151
5241.475555	5.998540	-300.482880	143.140625
5241.478513	5.823204	-296.976135	139.400131
5241.481807	6.524548	-293.118744	135.893417
5241.485109	7.342783	-289.612030	132.854248
5241.488452	7.927237	-286.748199	128.821518
5241.491357	7.927237	-283.299927	124.555008
5241.494693	8.745472	-279.851654	122.100311
5241.498066	9.271481	-276.637146	117.483124
5241.501357	9.213036	-273.597992	114.736191
5241.504693	9.505262	-270.441925	111.697037
5241.508026	10.206606	-267.811890	109.242325
5241.511356	10.031269	-265.006500	107.079849
5241.514712	10.557278	-262.025818	104.157578
5241.518025	10.498833	-259.746460	-302.212952
5241.521356	24.642609	-267.870361	-1949.670654
5241.524687	22.421686	-264.246735	-1744.994995
5241.528047	21.603451	-260.330902	-1560.249146
5241.531355	20.259207	-256.882629	-1398.706177
5241.534685	17.629166	-247.063782	89.312469
5241.538031	11.667738	-244.433746	86.974655
5241.541357	11.901520	-241.979034	86.507095
5241.544690	12.076857	-239.465881	83.760147
5241.548017	12.135302	-237.303406	82.708145
5241.551370	12.193747	-235.608490	81.188553
5241.554687	12.369083	-233.153793	78.792297
5241.558018	12.719757	-231.809555	76.980484
5241.561351	12.076857	-229.997726	76.103813
5241.565599	12.719757	-226.140366	73.882881
5241.568928	12.953539	-224.854538	72.071083
5241.572196	12.602865	-223.218094	71.194405
5241.575532	12.953539	-221.464706	69.674820
5241.578890	12.953539	-219.477585	68.155251
5241.581790	13.479546	-217.665771	66.869446
5241.585130	13.654882	-216.555313	65.642090
5241.588434	14.005554	-214.685059	64.706963
5241.591770	13.947109	-213.340805	62.778275
5241.594683	14.473116	-212.288788	61.317139
5241.598015	14.706898	-210.418533	60.966461
5241.601348	14.473116	-209.132751	59.856003
5241.604681	14.882235	-208.139191	58.687096
5241.608041	15.349796	-207.145599	58.277985
5241.611347	14.765343	-205.918243	57.401291
5241.614684	15.291351	-204.632446	56.290833
5241.618044	15.700468	-203.580429	55.823273
5241.621345	15.583578	-202.236206	54.829697
5241.624681	15.349796	-201.710175	54.595917
5241.628011	16.051142	-200.541290	54.128357
5241.631345	16.460258	-199.781494	53.836136
5241.634712	16.051142	-198.963272	53.310127
5241.638032	16.460258	-198.086578	51.615211
5241.641341	16.986267	-197.969681	52.024323
5241.644679	16.460258	-196.800781	51.790543
5241.648012	16.986267	-196.450104	50.972313
5241.651351	16.927820	-195.573425	50.212524
5241.654676	17.044714	-194.521408	49.861855
5241.658011	17.103159	-193.878510	49.394295
5241.661369	17.278494	-193.410950	48.459167
5241.666003	17.512276	-192.475830	48.634499
5241.668932	17.921392	-192.417374	47.699371
5241.672190	17.921392	-191.832932	47.699371
5241.675515	18.096729	-191.774475	47.114914
5241.678866	18.447401	-191.073135	47.699371
5241.681782	18.505846	-190.956253	47.465584
5241.685143	17.979839	-190.897797	47.407143
5241.688422	18.505846	-190.839355	47.465584
5241.691789	18.622738	-191.306915	47.173363
5241.694675	18.973410	-190.956253	47.640923
5241.698007	18.681183	-190.488693	47.173363
5241.701337	18.798073	-190.371796	46.179787
5241.704670	19.324081	-190.079559	46.705803
5241.708006	18.914965	-190.430237	47.231804
5241.711337	19.148745	-190.547119	47.173363
5241.714668	19.031855	-190.664017	46.998024
5241.718016	19.440971	-190.313339	47.407143
5241.721345	19.791643	-190.722473	47.991600
5241.724671	20.259207	-190.780899	47.991600
5241.728004	20.609879	-192.183594	47.816261
5241.731338	20.376097	-192.066711	48.283821
5241.734685	20.726768	-192.417374	48.050041
5241.738000	20.960550	-192.417374	48.634499
5241.741338	21.778788	-193.235611	48.926727
5241.744667	21.895678	-193.527847	49.043617
5241.748000	21.720341	-193.995407	49.803406
5241.751336	22.129459	-194.521408	50.329414
5241.754661	22.772358	-195.222748	49.628075
5241.757998	23.649038	-195.222748	50.212524
5241.761333	23.239920	-195.748764	50.387856
5241.764665	22.889248	-196.567001	51.673660
5241.768905	24.116600	-198.671036	52.667229
5241.772174	23.999710	-198.787933	52.784119
5241.775518	24.876389	-199.898392	53.660789
5241.778860	25.051725	-200.950409	54.479034
5241.781773	25.636179	-202.177750	54.829697
5241.785167	26.045296	-203.229767	55.414162
5241.788423	25.227062	-203.814224	56.758400
5241.791762	25.753069	-204.983124	57.518188
5241.794665	26.921976	-206.385803	58.102646
5241.798004	26.805086	-207.262497	59.505341
5241.801327	27.097313	-208.606750	59.797554
5241.804661	27.564875	-209.834106	61.200241
5241.807997	27.915546	-211.470566	63.012054
5241.811325	28.324663	-212.522583	63.304276
5241.814662	29.084455	-213.574600	64.706963
5241.818030	29.318239	-215.444855	65.525208
5241.821352	29.552019	-217.198212	66.460327
5241.824659	30.078028	-218.542465	68.096802
5241.827991	29.668909	-220.178925	70.142380
5241.831327	30.779371	-221.581604	71.019073
5241.834664	31.013151	-223.744080	72.772423
5241.837993	31.597605	-225.029877	73.415321
5241.841323	32.415840	-227.075485	74.642677
5241.844662	32.591175	-228.711945	76.922058
5241.847992	33.058739	-230.932861	79.493652
5241.851329	33.643192	-232.277115	80.019653
5241.854659	34.344536	-234.790253	82.123672
5241.857992	35.104324	-236.426743	84.052383
5241.861324	35.864113	-237.595627	85.805740
5241.864653	35.922558	-240.167236	87.909775
5241.868885	37.500587	-243.673950	92.059387
5241.872165	38.435711	-246.420883	94.046539
5241.875515	39.370838	-249.109360	96.676590
5241.878848	39.429283	-251.330276	99.365067
5241.882226	40.539742	-254.018784	100.826202
5241.885112	41.416424	-256.590393	103.280914
5241.888407	42.000877	-259.512665	106.144714
5241.891762	43.228230	-261.967377	108.424103
5241.895076	43.929573	-264.422089	112.456833
5241.897986	44.338692	-267.870361	114.911530
5241.901341	45.040035	-269.974365	118.710480
5241.904652	45.975159	-273.130432	122.275650
5241.907983	47.144066	-276.052673	124.555008
5241.911315	48.488312	-279.033417	128.178619
5241.914648	49.364990	-282.247894	131.276230
5241.918017	49.832550	-284.644165	135.601181
5241.921318	50.826126	-288.209351	138.991013
5241.924645	51.995033	-291.891388	142.789963
5241.927980	53.339279	-294.988983	148.050034
5241.931315	53.923729	-298.028168	151.147644
5241.934662	54.858856	-301.944000	156.057068
5241.937984	56.086205	-305.567596	160.849564
5241.941313	56.670658	-309.015869	166.284988
5241.944661	58.131794	-312.931732	170.726837
5241.947981	59.885155	-316.496887	176.220703
5241.951322	60.761841	-320.237396	180.954788
5241.954643	61.755402	-324.153229	186.156418
5241.957983	63.333435	-328.361298	191.124268
5241.961312	64.502342	-332.160217	197.319473
5241.964648	66.021919	-336.368286	203.164017
5241.967975	67.249268	-340.693268	209.242325
5241.972150	70.580650	-347.823578	223.502975
5241.975486	72.100235	-351.564087	229.464432
5241.978844	73.678261	-356.415039	237.763657
5241.982231	75.256279	-360.856903	245.712234
5241.985091	77.360313	-365.415649	252.959457
5241.988405	79.055229	-368.980804	261.258667
5241.991736	81.042374	-372.955109	269.382568
5241.995060	82.795731	-377.104706	277.331177
5241.997991	85.133545	-382.072571	286.448669
5242.001311	86.711571	-386.748199	295.566101
5242.004642	89.049385	-390.196472	304.917358
5242.007973	91.387199	-394.813660	315.028442
5242.011305	93.666573	-398.787933	325.490112
5242.014641	95.829041	-402.937561	335.075195
5242.017972	97.991524	-407.496277	346.530457
5242.021307	101.264465	-411.295258	357.810425
5242.024638	102.784050	-415.854004	368.798157
5242.027972	105.530975	-420.062042	381.889893
5242.031308	108.044121	-423.860992	393.871216
5242.034637	111.141731	-427.776825	405.969360
5242.037973	113.947105	-430.640656	418.768921
5242.041306	116.577148	-434.673370	433.906250
5242.044640	119.557854	-438.413879	447.582458
5242.047968	122.071014	-441.277710	461.667847
5242.051324	125.051727	-444.141541	476.045410
5242.054635	128.324661	-448.115784	490.189209
5242.057971	130.545593	-450.862762	506.027832
5242.061305	133.234070	-453.551208	523.093872
5242.064635	136.448578	-456.298187	538.932556
5242.067968	139.020172	-458.577545	555.647949
5242.072214	145.156937	-462.259613	589.896912
5242.075537	149.248093	-464.012970	607.372131
5242.078804	152.053467	-465.357178	625.723938
5242.082144	155.560196	-466.292297	644.484924
5242.085053	158.540909	-466.526093	662.427612
5242.088435	161.872299	-466.526093	681.656128
5242.091754	165.086792	-466.526093	700.884644
5242.095060	168.885742	-465.941650	720.054749
5242.097963	171.866455	-464.831177	738.874146
5242.101296	175.197845	-462.844055	759.680725
5242.104627	179.289017	-460.389343	779.376770
5242.107962	182.795731	-458.168427	800.475586
5242.111296	186.477783	-455.012390	820.639160
5242.114630	190.042953	-451.388763	840.276855
5242.117964	192.556107	-447.706726	860.615784
5242.121296	196.588837	-442.797302	879.727417
5242.124632	199.978668	-437.244965	900.183350
5242.127967	203.368500	-431.634216	922.275696
5242.131298	207.167450	-424.620789	941.153503
5242.134630	210.557281	-417.782654	959.739197
5242.137958	214.180878	-408.606750	977.681885
5242.141294	217.629150	-400.015289	997.144165
5242.144641	221.018997	-390.956268	1015.437622
5242.147963	223.882828	-380.845215	1033.847900
5242.151289	226.980408	-370.500397	1052.141235
5242.154624	229.610458	-359.161987	1067.103271
5242.157980	232.298950	-346.128662	1084.519897
5242.161293	234.929001	-333.855133	1099.949463
5242.164628	237.734375	-320.237396	1114.969971
5242.167960	239.429276	-306.035156	1127.418823
5242.172160	243.637360	-275.409790	1152.316528
5242.175508	245.624481	-258.928192	1163.538086
5242.178877	246.851837	-241.862152	1173.882935
5242.182134	248.137634	-225.439011	1183.351074
5242.185042	249.014313	-207.671616	1191.942505
5242.188376	249.657211	-188.793777	1197.962402
5242.191710	250.066345	-169.506805	1205.443481
5242.195079	250.183228	-150.044495	1210.703369
5242.197984	250.183228	-129.413284	1214.210205
5242.201288	249.832550	-108.782082	1216.197388
5242.204621	249.131210	-88.326202	1218.359863
5242.207951	248.546753	-67.285873	1218.301392
5242.211306	247.027176	-46.128662	1217.249390
5242.214616	245.858276	-24.153208	1215.729736
5242.217951	244.806259	-3.346663	1212.515259
5242.221287	242.819107	19.388580	1207.547485
5242.224620	240.890411	41.071804	1202.579590
5242.227953	238.669495	62.521248	1195.098511
5242.231288	236.273224	83.853806	1187.792969
5242.234616	233.876984	106.355270	1179.668945
5242.237953	231.889832	127.278702	1170.609985
5242.241286	229.259781	148.669708	1158.803955
5242.244615	225.811523	169.476257	1148.576050
5242.247969	222.947678	189.932129	1135.425781
5242.251288	219.908539	210.212662	1123.152344
5242.254618	216.635590	229.674957	1109.183960
5242.257950	213.771759	248.669724	1094.338745
5242.261279	210.089722	267.489105	1079.961304
5242.264613	206.173889	285.899384	1063.012085
5242.267950	203.485382	303.432983	1045.946045
5242.272568	195.770599	336.980621	1013.041260
5242.275480	192.439224	352.117981	994.514160
5242.278832	188.406494	368.073547	976.863647
5242.282207	184.373764	382.509552	958.161133
5242.285464	180.574814	395.776642	939.926086
5242.288369	176.775864	408.985321	920.931396
5242.291699	173.269135	421.258820	900.943115
5242.295029	169.002625	432.714111	881.889893
5242.298389	164.853012	443.526489	862.427551
5242.301312	161.287842	453.637543	843.257568
5242.304614	157.138229	462.345917	823.795288
5242.307944	152.988602	470.937378	804.566711
5242.311275	148.488312	478.535248	785.688843
5242.314615	144.514023	486.074707	765.992798
5242.317942	139.896851	492.971252	748.225403
5242.321273	136.857681	499.049591	728.704651
5242.324605	132.123611	504.309692	710.002136
5242.327940	128.441559	508.985321	691.591858
5242.331282	124.876389	512.667358	673.999817
5242.334608	120.609879	515.297424	655.998596
5242.337939	117.278488	518.161255	638.640381
5242.341271	112.602867	520.206848	621.165161
5242.344611	108.745468	521.317322	604.391418
5242.347937	105.121864	522.486206	587.208435
5242.351280	102.199585	522.836914	571.311279
5242.354639	98.634422	522.544617	555.238831
5242.357941	95.653709	523.012207	538.757263
5242.361272	92.380775	521.843323	523.327698
5242.364606	88.874054	520.499023	508.073425
5242.367941	85.893341	518.862610	492.117859
5242.371272	82.854179	517.284546	477.272766
5242.375469	78.003212	511.790680	449.394287
5242.378808	75.606949	509.569763	436.653198
5242.382177	72.801575	506.179932	420.989868
5242.385465	69.879311	503.549896	408.482544
5242.388357	68.067505	499.341797	396.442810
5242.391686	65.671249	495.776642	384.403015
5242.395028	63.625656	491.568604	372.363342
5242.398369	61.755402	487.360504	360.089783
5242.401266	59.768265	483.269348	348.985168
5242.404601	58.365578	477.541718	338.172791
5242.407963	55.677090	473.275177	327.243469
5242.411273	53.865284	468.950195	317.015564
5242.414598	52.111923	464.216156	306.261597
5242.417934	50.124783	459.014526	295.741455
5242.421265	48.663643	454.105133	286.916199
5242.424597	46.910286	448.961914	277.038940
5242.427934	45.098480	443.584961	268.272156
5242.431262	43.754238	438.675537	259.622253
