time (s)	det(V)
1184.272840	-0.423538	
1184.274333	-0.403775	
1184.275880	-0.380543	
1184.277411	-0.351346	
1184.278930	-0.341944	
1184.280470	-0.308279	
1184.281987	-0.284665	
1184.283516	-0.262675	
1184.284996	-0.238771	
1184.286567	-0.210693	
1184.288056	-0.184924	
1184.289611	-0.165262	
1184.291101	-0.138905	
1184.292654	-0.112805	
1184.294146	-0.084744	
1184.295680	-0.076321	
1184.297188	-0.044199	
1184.298716	-0.018675	
1184.300238	0.004105	
1184.301725	0.025781	
1184.303286	0.057472	
1184.304787	0.083314	
1184.306345	0.105014	
1184.307841	0.129712	
1184.309420	0.156561	
1184.310934	0.184481	
1184.312465	0.196812	
1184.313992	0.224402	
1184.315506	0.251472	
1184.317028	0.273144	
1184.318542	0.292964	
1184.320070	0.331563	
1184.321550	0.351181	
1184.323090	0.372616	
1184.324572	0.398663	
1184.326116	0.420371	
1184.327603	0.446382	
1184.329139	0.457271	
1184.330654	0.486859	
1184.332163	0.511452	
1184.333682	0.534949	
1184.335170	0.555715	
1184.336697	0.585250	
1184.338193	0.607394	
1184.339725	0.627467	
1184.341220	0.654022	
1184.342729	0.678269	
1184.344282	0.703413	
1184.345768	0.714128	
1184.347314	0.743568	
1184.348794	0.766045	
1184.350340	0.784399	
1184.351825	0.804310	
1184.353369	0.834474	
1184.354852	0.851454	
1184.356404	0.869021	
1184.357896	0.894166	
1184.359425	0.914111	
1184.360932	0.939243	
1184.362442	0.943119	
1184.363967	0.972686	
1184.365478	0.990491	
1184.366996	1.007233	
1184.368492	1.023008	
1184.370044	1.049051	
1184.371528	1.065152	
1184.373079	1.076798	
1184.374562	1.094422	
1184.376096	1.110278	
1184.377584	1.129235	
1184.379118	1.131406	
1184.380619	1.152982	
1184.382151	1.162887	
1184.383653	1.174642	
1184.385157	1.187464	
1184.386688	1.202079	
1184.388181	1.212754	
1184.389723	1.220436	
1184.391212	1.232010	
1184.392756	1.241206	
1184.394248	1.248892	
1184.395779	1.243498	
1184.397300	1.253871	
1184.398822	1.258165	
1184.400336	1.259503	
1184.401833	1.266443	
1184.403374	1.272184	
1184.404852	1.275797	
1184.406384	1.274992	
1184.407869	1.277123	
1184.409408	1.281280	
1184.410897	1.285888	
1184.412426	1.268381	
1184.413928	1.276289	
1184.415456	1.275874	
1184.416964	1.270613	
1184.418452	1.268776	
1184.419987	1.267716	
1184.421483	1.263116	
1184.423026	1.254242	
1184.424521	1.251494	
1184.426070	1.248163	
1184.427563	1.248815	
1184.429086	1.229508	
1184.430597	1.229834	
1184.432115	1.221504	
1184.433637	1.208726	
1184.435126	1.199871	
1184.436651	1.191859	
1184.438148	1.182618	
1184.439663	1.170050	
1184.441183	1.158686	
1184.442674	1.146750	
1184.444211	1.138842	
1184.445719	1.111538	
1184.447262	1.108517	
1184.448746	1.094607	
1184.450297	1.077459	
1184.451790	1.061966	
1184.453332	1.049990	
1184.454824	1.035532	
1184.456357	1.017755	
1184.457850	1.004909	
1184.459372	0.989283	
1184.460869	0.976964	
1184.462386	0.949378	
1184.463913	0.940017	
1184.465427	0.924069	
1184.466948	0.905599	
1184.468432	0.889997	
1184.469985	0.875374	
1184.488291	0.706153	
1184.489824	0.681560	
1184.491315	0.667134	
1184.492849	0.653128	
1184.494339	0.636636	
1184.495873	0.609690	
1184.497379	0.602802	
1184.498907	0.584328	
1184.500415	0.564009	
1184.501937	0.547340	
1184.503454	0.545338	
1184.504940	0.525108	
1184.506477	0.507407	
1184.507966	0.498062	
1184.509523	0.482242	
1184.511020	0.471458	
1184.512556	0.448763	
1184.514077	0.443107	
1184.515599	0.429749	
1184.517124	0.420774	
1184.518636	0.410272	
1184.520147	0.408282	
1184.521630	0.390622	
1184.523174	0.380874	
1184.524658	0.371069	
1184.526205	0.361417	
1184.527695	0.356502	
1184.529229	0.335889	
1184.530739	0.331068	
1184.532276	0.321432	
1184.533783	0.311490	
1184.535274	0.301906	
1184.536797	0.298845	
1184.538295	0.290124	
1184.539818	0.279513	
1184.541327	0.271537	
1184.542859	0.267509	
1184.544384	0.262389	
1184.545874	0.247327	
1184.547434	0.245248	
1184.548932	0.239693	
1184.550490	0.230827	
1184.551970	0.223838	
1184.553515	0.222331	
1184.554994	0.213956	
1184.556536	0.207849	
1184.558020	0.206955	
1184.559559	0.199265	
1184.561054	0.197392	
1184.562568	0.182616	
1184.564068	0.184622	
1184.565601	0.180328	
1184.567114	0.172034	
1184.568641	0.165407	
1184.570158	0.169318	
1184.571640	0.161157	
1184.573185	0.155671	
1184.574672	0.154679	
1184.576217	0.153817	
1184.577709	0.149165	
1184.579249	0.138228	
1184.580741	0.139589	
1184.582279	0.137293	
1184.583786	0.131017	
1184.585311	0.124975	
1184.586819	0.131597	
1184.588302	0.123420	
1184.589850	0.119069	
1184.591333	0.115838	
1184.592869	0.115045	
1184.594355	0.113889	
1184.595886	0.099540	
1184.597405	0.104414	
1184.598919	0.102227	
1184.600444	0.098082	
1184.601967	0.091584	
1184.603490	0.098041	
1184.604975	0.093868	
1184.606531	0.088120	
1184.608014	0.086428	
1184.609550	0.084994	
1184.611039	0.085557	
1184.612584	0.072667	
1184.614075	0.076405	
1184.615611	0.072304	
1184.617116	0.067825	
1184.618635	0.064993	
1184.620150	0.071591	
1184.621633	0.063208	
1184.623180	0.060107	
1184.624669	0.059087	
1184.626208	0.058137	
1184.627697	0.059889	
1184.629242	0.048038	
1184.630750	0.051655	
1184.632265	0.050515	
1184.633780	0.047196	
1184.635268	0.045423	
1184.636793	0.044835	
1184.638280	0.042140	
1184.639809	0.039582	
1184.641320	0.042132	
1184.642850	0.038696	
1184.644379	0.039244	
1184.645872	0.030643	
1184.647403	0.033697	
1184.648899	0.033592	
1184.650439	0.029705	
1184.651921	0.026986	
1184.653471	0.035026	
1184.654961	0.028561	
1184.656514	0.026450	
1184.658019	0.025850	
1184.659548	0.027203	
1184.661048	0.028287	
1184.662583	0.016661	
1184.664078	0.023413	
1184.665606	0.023187	
1184.667123	0.021209	
1184.668647	0.015831	
1184.670172	0.024339	
1184.671657	0.021112	
1184.673205	0.016399	
1184.674694	0.019062	
1184.676230	0.019835	
1184.677716	0.019006	
1184.679252	0.008645	
1184.680741	0.015014	
1184.682286	0.015142	
1184.683796	0.008306	
1184.685314	0.010035	
1184.686829	0.012971	
1184.688313	0.012166	
1184.689864	0.009753	
1184.691354	0.011734	
1184.692899	0.013374	
1184.694394	0.013793	
1184.695929	0.006659	
1184.697427	0.013229	
1184.698963	0.011477	
1184.700474	0.011722	
1184.702005	0.006087	
1184.703519	0.013805	
1184.705000	0.009998	
1184.706549	0.007247	
1184.708036	0.008057	
1184.709572	0.010151	
1184.711061	0.012891	
1184.712603	0.003851	
1184.714100	0.010949	
1184.715634	0.010349	
1184.717157	0.007815	
1184.718669	0.001869	
1184.720189	0.014852	
1184.721671	0.008085	
1184.723224	0.006216	
1184.724713	0.008423	
1184.726263	0.008198	
1184.727746	0.010953	
1184.729289	0.002026	
1184.730783	0.006896	
1184.732319	0.006606	
1184.733832	0.005140	
1184.735319	0.003815	
1184.736872	0.009116	
1184.738360	0.006240	
1184.739881	0.004056	
1184.741382	0.005229	
1184.742894	0.007344	
1184.744418	0.007622	
1184.745902	-0.001547	
1184.747437	0.004326	
1184.748941	0.003621	
1184.750488	0.001885	
1184.751968	-0.001140	
1184.753521	0.009567	
1184.755002	0.002627	
1184.756551	0.001623	
1184.758040	0.003456	
1184.759569	0.004065	
1184.761054	0.006268	
1184.762603	-0.002151	
1184.764098	0.001579	
1184.765636	0.001950	
1184.767144	-0.001696	
1184.768666	-0.002647	
1184.770180	0.008343	
1184.771670	0.000447	
1184.773219	-0.001607	
1184.774716	0.000435	
1184.776268	0.001490	
1184.777764	0.003114	
1184.779309	-0.006192	
1184.780810	-0.001003	
1184.782331	-0.002111	
1184.783854	-0.003569	
1184.785365	-0.004226	
1184.786875	0.003130	
1184.788359	-0.001507	
1184.789916	-0.002921	
1184.791403	-0.001849	
1184.792940	-0.000947	
1184.794429	0.000600	
1184.795964	-0.008222	
1184.797452	-0.002473	
1184.798991	-0.003062	
1184.800507	-0.004931	
1184.802028	-0.008447	
1184.803548	0.004709	
1184.805042	-0.003231	
1184.806595	-0.004451	
1184.808089	-0.003215	
1184.809639	-0.002002	
1184.811129	-0.001080	
1184.812672	-0.008778	
1184.814165	-0.003134	
1184.815710	-0.003513	
1184.817222	-0.005309	
1184.818753	-0.007630	
1184.820266	0.002397	
1184.821763	-0.004266	
1184.823293	-0.004612	
1184.824784	-0.002240	
1184.826328	-0.001184	
1184.827814	0.000508	
1184.829352	-0.007162	
1184.830837	-0.002743	
1184.832357	-0.002562	
1184.833879	-0.003980	
1184.835362	-0.007742	
1184.836896	0.002292	
1184.838381	-0.002276	
1184.839915	-0.002598	
1184.841412	-0.001740	
1184.842948	-0.001221	
1184.844459	0.001402	
1184.845952	-0.005716	
1184.847490	-0.000943	
1184.849017	-0.001841	
1184.850532	-0.002767	
1184.852016	-0.008637	
1184.853565	0.005281	
1184.855044	-0.001277	
1184.856588	-0.002131	
1184.858082	-0.000218	
1184.859630	0.000926	
1184.861128	0.002808	
1184.862680	-0.005007	
1184.864174	0.000810	
1184.865702	-0.001104	
1184.867225	-0.002993	
1184.868746	-0.005136	
1184.870266	0.006401	
1184.871760	-0.000544	
1184.873301	-0.002389	
1184.874789	-0.000975	
1184.876321	0.000363	
1184.877806	0.001132	
1184.879351	-0.005261	
1184.880839	-0.000757	
1184.882369	-0.000765	
1184.883876	-0.003356	
1184.885401	-0.007114	
1184.886913	0.003577	
1184.888400	-0.002046	
1184.889943	-0.003678	
1184.891438	-0.001406	
1184.892985	-0.001229	
1184.894482	-0.000657	
1184.896026	-0.007871	
1184.897528	-0.002832	
1184.899051	-0.004431	
1184.900564	-0.005885	
1184.902071	-0.010486	
1184.903588	0.001688	
1184.905072	-0.005229	
1184.906629	-0.006405	
1184.908116	-0.005660	
1184.909662	-0.003460	
1184.911145	-0.002816	
1184.912689	-0.011924	
1184.914176	-0.007046	
1184.915714	-0.007791	
1184.917222	-0.009708	
1184.918735	-0.011896	
1184.920248	-0.005172	
1184.921736	-0.009454	
1184.923274	-0.011150	
1184.924766	-0.009680	
1184.926305	-0.009394	
1184.927797	-0.008802	
1184.929322	-0.016278	
1184.930814	-0.011992	
1184.932339	-0.012423	
1184.933855	-0.014687	
1184.935336	-0.017036	
1184.936877	-0.009720	
1184.938366	-0.015364	
1184.939903	-0.015912	
1184.941396	-0.014631	
1184.942922	-0.013853	
1184.944454	-0.012500	
1184.945935	-0.022184	
1184.947471	-0.015187	
1184.948976	-0.017725	
1184.950526	-0.019642	
1184.952003	-0.023219	
1184.953553	-0.012399	
1184.955029	-0.018659	
1184.956569	-0.020327	
1184.958064	-0.019183	
1184.959582	-0.017483	
1184.961076	-0.017084	
1184.962596	-0.025813	
1184.964106	-0.021471	
1184.965653	-0.021080	
1184.967165	-0.023050	
1184.968689	-0.024158	
1184.970196	-0.019972	
1184.971677	-0.023054	
1184.973224	-0.025105	
1184.974709	-0.023558	
1184.976254	-0.022643	
1184.977746	-0.021350	
1184.979273	-0.031115	
1184.980766	-0.025499	
1184.982291	-0.025673	
1184.983808	-0.028863	
1184.985317	-0.030901	
1184.986834	-0.024673	
1184.988315	-0.027936	
1184.989872	-0.030228	
1184.991362	-0.028774	
1184.992886	-0.028412	
1184.994373	-0.027896	
1184.995918	-0.037407	
1184.997409	-0.032372	
1184.998932	-0.033959	
1185.000446	-0.037016	
1185.001969	-0.040992	
1185.003485	-0.029411	
1185.004966	-0.037065	
1185.006505	-0.039200	
1185.007997	-0.039369	
1185.009539	-0.039816	
1185.011027	-0.038583	
1185.012572	-0.049363	
1185.014072	-0.046019	
1185.015606	-0.046986	
1185.017130	-0.049762	
1185.018644	-0.051196	
1185.020166	-0.049452	
1185.021648	-0.053073	
1185.023206	-0.057605	
1185.024690	-0.056707	
1185.026238	-0.057412	
1185.027730	-0.059180	
1185.029277	-0.068598	
1185.030767	-0.065315	
1185.032313	-0.069053	
1185.033815	-0.073920	
1185.035306	-0.077992	
1185.036836	-0.073029	
1185.038327	-0.079459	
1185.039845	-0.083962	
1185.041354	-0.085062	
1185.042869	-0.086702	
1185.044399	-0.088800	
1185.045881	-0.100652	
1185.047427	-0.098508	
1185.048943	-0.102633	
1185.050495	-0.107455	
1185.051982	-0.115250	
1185.053542	-0.107073	
1185.055021	-0.116547	
1185.056584	-0.121216	
1185.058070	-0.124322	
1185.059624	-0.126880	
1185.061122	-0.129466	
1185.062650	-0.142659	
1185.064152	-0.141342	
1185.065706	-0.146309	
1185.067232	-0.152919	
1185.068742	-0.158821	
1185.070285	-0.156710	
1185.071791	-0.165113	
1185.073334	-0.171417	
1185.074822	-0.174519	
1185.076392	-0.178648	
1185.077881	-0.182999	
1185.079441	-0.196377	
1185.080927	-0.197005	
1185.082476	-0.203092	
1185.083993	-0.210464	
1185.085536	-0.220772	
1185.087058	-0.212405	
1185.088577	-0.227310	
1185.090101	-0.234009	
1185.091594	-0.238771	
1185.093143	-0.243093	
1185.094636	-0.249559	
1185.096200	-0.261265	
1185.097706	-0.264218	
1185.099249	-0.272318	
1185.100751	-0.279719	
1185.102283	-0.291344	
1185.103823	-0.285213	
1185.105349	-0.299300	
1185.106875	-0.307478	
1185.108352	-0.314217	
1185.109923	-0.320380	
1185.111410	-0.328812	
1185.112973	-0.340860	
1185.114454	-0.345416	
1185.116009	-0.354424	
1185.117500	-0.365421	
1185.119049	-0.376882	
1185.120572	-0.373518	
1185.122099	-0.390413	
1185.123626	-0.399235	
1185.125144	-0.404181	
1185.126694	-0.410691	
1185.128180	-0.422647	
1185.129742	-0.434289	
1185.131227	-0.442882	
1185.132785	-0.453460	
1185.134278	-0.467188	
1185.135840	-0.481090	
1185.137358	-0.481703	
1185.138848	-0.500809	
1185.140407	-0.514400	
1185.141907	-0.524733	
1185.143469	-0.535601	
1185.144963	-0.554430	
1185.146492	-0.569367	
1185.148007	-0.579917	
1185.149538	-0.595672	
1185.151045	-0.612305	
1185.152577	-0.629912	
1185.154087	-0.632897	
1185.155605	-0.656012	
1185.157145	-0.673112	
1185.158630	-0.687469	
1185.160190	-0.703437	
1185.161669	-0.723772	
1185.163230	-0.741384	
1185.164719	-0.756083	
1185.166275	-0.776342	
1185.167767	-0.795529	
1185.169318	-0.815525	
1185.170803	-0.822809	
1185.172350	-0.849488	
1185.173877	-0.868494	
1185.175404	-0.885654	
1185.176946	-0.899145	
1185.178452	-0.932314	
1185.179998	-0.945870	
1185.181477	-0.964037	
1185.183047	-0.985013	
1185.184532	-1.004321	
1185.186074	-1.024966	
1185.187565	-1.033872	
1185.189114	-1.060222	
1185.190644	-1.078627	
1185.192178	-1.093133	
1185.193695	-1.106225	
1185.195216	-1.140542	
1185.196736	-1.150412	
1185.198223	-1.165002	
1185.199782	-1.183609	
1185.201279	-1.198740	
1185.202842	-1.214901	
1185.204341	-1.221234	
1185.205899	-1.234624	
1185.207405	-1.246725	
1185.208927	-1.257863	
1185.210462	-1.264522	
1185.211983	-1.287354	
1185.213512	-1.292060	
1185.214994	-1.300193	
1185.216573	-1.310308	
1185.218063	-1.319972	
1185.219614	-1.325406	
1185.221100	-1.324455	
1185.222659	-1.334824	
1185.224147	-1.338659	
1185.225691	-1.339400	
1185.227211	-1.335872	
1185.228736	-1.354446	
1185.230279	-1.346083	
1185.231803	-1.343771	
1185.233343	-1.345689	
1185.234830	-1.344154	
1185.236402	-1.340605	
1185.237896	-1.331167	
1185.239429	-1.331267	
1185.240962	-1.325072	
1185.242454	-1.316753	
1185.244021	-1.304418	
1185.245509	-1.312145	
1185.247071	-1.294783	
1185.248556	-1.284317	
1185.250126	-1.275886	
1185.251613	-1.266085	
1185.253176	-1.252767	
1185.254672	-1.238104	
1185.256210	-1.231566	
1185.257724	-1.222623	
1185.259244	-1.207654	
1185.260756	-1.189490	
1185.262279	-1.189700	
1185.263820	-1.167242	
1185.265347	-1.151173	
1185.266888	-1.139410	
1185.268373	-1.123015	
1185.269933	-1.102765	
1185.271423	-1.085375	
1185.272985	-1.071263	
1185.274470	-1.052753	
1185.276020	-1.034195	
1185.277513	-1.012128	
1185.279053	-1.006697	
1185.280577	-0.980815	
1185.282096	-0.962180	
1185.283630	-0.945789	
1185.285153	-0.929704	
1185.286685	-0.902368	
1185.288165	-0.886073	
1185.289730	-0.869606	
1185.291216	-0.849263	
1185.292760	-0.827421	
1185.294254	-0.805628	
1185.295805	-0.797487	
1185.297338	-0.770573	
1185.298878	-0.748619	
1185.300394	-0.730415	
1185.301926	-0.714523	
1185.303440	-0.680101	
1185.304934	-0.664407	
1185.306496	-0.643198	
1185.307990	-0.620007	
1185.309544	-0.596058	
1185.311045	-0.572130	
1185.312597	-0.557777	
1185.314105	-0.528753	
1185.315629	-0.506727	
1185.317157	-0.483636	
1185.318676	-0.464433	
1185.320212	-0.424525	
1185.321696	-0.409680	
1185.323259	-0.392636	
1185.324744	-0.364285	
1185.326295	-0.338439	
1185.327778	-0.312553	
1185.329332	-0.296638	
1185.330818	-0.264802	
1185.332361	-0.239157	
1185.333875	-0.217259	
1185.335402	-0.196030	
1185.336935	-0.154410	
1185.338427	-0.136919	
1185.339972	-0.112467	
1185.341476	-0.084285	
1185.343011	-0.058036	
1185.344504	-0.030345	
1185.346021	-0.014635	
1185.347552	0.019384	
1185.349047	0.046966	
1185.350602	0.070395	
1185.352090	0.089860	
1185.353640	0.134256	
1185.355126	0.150699	
1185.356715	0.174064	
1185.358197	0.201903	
1185.359742	0.227789	
1185.361229	0.254505	
1185.362749	0.269656	
1185.364248	0.300634	
1185.365799	0.326064	
1185.367318	0.352337	
1185.368828	0.370988	
1185.370344	0.411219	
1185.371865	0.425092	
1185.373382	0.443945	
1185.374868	0.470580	
1185.376425	0.496611	
1185.377909	0.519375	
1185.379444	0.535887	
1185.380931	0.565367	
1185.382472	0.587788	
1185.383962	0.607019	
1185.385490	0.627963	
1185.386996	0.664512	
1185.388525	0.680665	
1185.390043	0.701830	
1185.391538	0.725078	
1185.393073	0.746391	
1185.394562	0.768261	
1185.396099	0.781260	
1185.397589	0.807098	
1185.399108	0.827075	
1185.400634	0.843188	
1185.402150	0.858065	
1185.403659	0.894497	
1185.405179	0.904257	
1185.406696	0.921917	
1185.408185	0.944271	
1185.409726	0.962555	
1185.411214	0.980445	
1185.412763	0.992103	
1185.414243	1.017393	
1185.415780	1.033615	
1185.417289	1.046324	
1185.418816	1.061998	
1185.420321	1.090072	
1185.421847	1.101097	
1185.423361	1.116272	
1185.424856	1.134459	
1185.426414	1.149723	
1185.427906	1.165111	
1185.429445	1.173365	
1185.430937	1.191694	
1185.432459	1.203856	
1185.433978	1.215070	
1185.435496	1.225806	
1185.437014	1.246608	
1185.438498	1.249786	
1185.440042	1.257710	
1185.441521	1.270834	
1185.443067	1.281566	
1185.444573	1.291862	
1185.446096	1.290267	
1185.447617	1.306211	
1185.449103	1.311379	
1185.450656	1.315287	
1185.452136	1.315847	
1185.453687	1.335473	
1185.455171	1.329527	
1185.456725	1.333745	
1185.458207	1.336999	
1185.459741	1.339513	
1185.461225	1.340923	
1185.462760	1.333104	
1185.464254	1.335831	
1185.465773	1.333346	
1185.467288	1.325571	
1185.468804	1.319142	
1185.470317	1.327380	
1185.471839	1.312443	
1185.473356	1.303846	
1185.474837	1.299427	
1185.476378	1.291588	
1185.477861	1.283455	
1185.479392	1.268349	
1185.480881	1.261368	
1185.482412	1.250395	
1185.483931	1.241367	
1185.485442	1.225484	
1185.486959	1.227046	
1185.488483	1.204323	
1185.489998	1.188709	
1185.491483	1.176906	
1185.493034	1.159975	
1185.494520	1.145320	
1185.496058	1.122536	
1185.497547	1.110253	
1185.499087	1.092311	
1185.500598	1.070981	
1185.502119	1.049257	
1185.503628	1.046223	
1185.505145	1.020720	
1185.506649	1.002121	
1185.508132	0.984296	
1185.509667	0.967236	
1185.511154	0.948508	
1185.512694	0.925925	
1185.514180	0.909744	
1185.515711	0.892861	
1185.534775	0.700940	
1185.536317	0.683010	
1185.537805	0.670699	
1185.539314	0.650666	
1185.540866	0.634634	
1185.542352	0.619524	
1185.543892	0.610170	
1185.545373	0.581351	
1185.546918	0.572831	
1185.548403	0.559924	
1185.549947	0.546712	
1185.551439	0.529918	
1185.552957	0.518215	
1185.554469	0.511657	
1185.555991	0.494045	
1185.557496	0.480333	
1185.559010	0.471712	
1185.560534	0.465529	
1185.562014	0.438273	
1185.563559	0.437488	
1185.565046	0.428134	
1185.566589	0.419239	
1185.568075	0.409781	
1185.569629	0.401914	
1185.571112	0.396870	
1185.572654	0.382227	
1185.574140	0.374606	
1185.575674	0.368414	
1185.577177	0.362992	
1185.578702	0.339402	
1185.580209	0.342323	
1185.581719	0.332820	
1185.583252	0.319571	
1185.584739	0.312118	
1185.586277	0.307123	
1185.587769	0.304110	
1185.589323	0.293648	
1185.590818	0.287542	
1185.592343	0.282595	
1185.593869	0.278458	
1185.595385	0.259367	
1185.596908	0.258687	
1185.598406	0.251367	
1185.599941	0.246843	
1185.601423	0.241071	
1185.602966	0.232897	
1185.604454	0.233683	
1185.605992	0.221421	
1185.607481	0.218468	
1185.609012	0.213952	
1185.610524	0.212462	
1185.612047	0.191841	
1185.613555	0.194995	
1185.615071	0.190354	
1185.616599	0.184521	
1185.618092	0.176593	
1185.619636	0.171111	
1185.621131	0.172416	
1185.622674	0.165290	
1185.624172	0.159461	
1185.625715	0.158720	
1185.627240	0.156883	
1185.628744	0.142776	
1185.630263	0.142562	
1185.631774	0.139424	
1185.633290	0.131666	
1185.634772	0.128008	
1185.636327	0.126860	
1185.637822	0.125563	
1185.639339	0.117329	
1185.640889	0.116652	
1185.642370	0.115025	
1185.643916	0.115721	
1185.645397	0.096337	
1185.646946	0.101220	
1185.648431	0.097320	
1185.649981	0.092957	
1185.651469	0.089985	
1185.652998	0.087378	
1185.654489	0.090669	
1185.656013	0.084188	
1185.657507	0.081416	
